vref	load	angle
1	1.71	8.5
2.1	2	9.21
3	2.44	10.08
4	3.10	10.37
5	26.4	27
5.4	48.2	36
5.8	65.6	45
6.2	85.5	54
6.6	108.6	63
7	133.8	72
7.4	142.7	81
8	158.7	90
8.4	177.4	99
8.8	189.3	108
9.2	199.8	117
9.4	208.9	126
9.8	218.3	135
10	221.3	153
10.4	222.8	162
10.6	223	174.24
10.9	225	176